Time (s),Ay (m/s²),Fᵧ (N)
0.0,0.45071392059326243,-2.0281314849853516
0.005000114440917969,0.5219257354736335,-2.022724151611328
0.010000228881835938,0.5928924560546882,-2.006490707397461
0.015000343322753906,0.6885831832885749,-1.9956809282302856
0.020000457763671875,0.7494104385375984,-1.979447364807129
0.02499961853027166,0.828694152832032,-1.9686375856399536
0.029999732971191406,0.8832357406616218,-1.946996569633484
0.034999847412109375,0.9374559402465827,-1.941599726676941
0.039999961853027344,1.0010755538940437,-1.9361705780029297
0.045000076293943536,1.0431259155273445,-1.9199479818344116
0.05000019073486328,1.08799057006836,-1.898317575454712
0.055000305175779474,1.1552751541137702,-1.8875025510787964
0.06000041961669922,1.225310134887696,-1.8820841312408447
0.06499958038330078,1.2742670059204109,-1.8820842504501345
0.06999969482422053,1.317529487609864,-1.8496387004852295
0.07499980926513672,1.3653676986694343,-1.8550571203231812
0.07999992370605646,1.3980615615844734,-1.8442203998565672
0.08500003814697266,1.4252288818359382,-1.833405375480652
0.09000015258789062,1.5070255279541023,-1.817182660102844
0.0950002670288086,1.5371978759765632,-1.8171879053115845
0.10000038146972834,1.5530603408813484,-1.811769723892212
0.10499954223632812,1.5940855026245124,-1.795552372932434
0.1099996566772461,1.6275041580200202,-1.800949215888977
0.11499977111816406,1.644438552856446,-1.779324293136597
0.11999988555908203,1.6785810470581062,-1.7847211360931396
0.125,1.6966646194458015,-1.773916721343994
0.13000011444091797,1.731575775146485,-1.7739059925079346
0.13500022888183594,1.7276332855224616,-1.7739166021347046
0.1400003433227539,1.7627790451049812,-1.768498420715332
0.14500045776367188,1.7517831802368171,-1.7630960941314695
0.14999961853027166,1.7849233627319343,-1.7630856037139893
0.1549997329711914,1.7854993820190437,-1.7630962133407593
0.15999984741210938,1.7863929748535163,-1.7576780319213867
0.16499996185302734,1.7890174865722663,-1.746862769126892
0.17000007629394354,1.7696836471557624,-1.7414551973342896
0.17500019073486328,1.762501525878907,-1.7414604425430298
0.18000030517577947,1.7815549850463874,-1.7522649765014648
0.18500041961669922,1.7614791870117195,-1.7576779127120972
0.18999958038330078,1.7479875564575202,-1.7522703409194946
0.19499969482422053,1.7337720870971687,-1.746862769126892
0.19999980926513672,1.7314270019531257,-1.746862769126892
0.20499992370605646,1.6978595733642585,-1.746862769126892
0.21000003814697266,1.7051914215087898,-1.7576779127120972
0.21500015258789062,1.6628416061401374,-1.7522703409194946
0.2200002670288086,1.670749473571778,-1.7576779127120972
0.22500038146972834,1.6286981582641609,-1.76309072971344
0.22999954223632812,1.6135881423950202,-1.7630908489227295
0.2349996566772461,1.565097618103028,-1.768498420715332
0.23999977111816406,1.5529106140136726,-1.7739059925079346
0.24499988555908203,1.533410835266114,-1.790134072303772
0.25,1.4657152175903327,-1.8009493350982666
0.25500011444091797,1.4320791244506843,-1.8009545803070068
0.26000022888183594,1.3692062377929695,-1.8063621520996096
0.2650003433227539,1.3370330810546882,-1.811769723892212
0.2700004577636719,1.2816188812255866,-1.8225849866867063
0.27499961853027166,1.2331111907958991,-1.8280030488967896
0.2799997329711914,1.1743286132812507,-1.827992558479309
0.2849998474121094,1.1250961303710945,-1.833405375480652
0.28999996185302734,1.059132385253907,-1.849628210067749
0.29500007629394354,1.003590393066407,-1.8658509254455569
0.3000001907348633,0.9598997116088874,-1.8712689876556396
0.3050003051757795,0.8962457656860359,-1.8766766786575315
0.3100004196166992,0.8125312805175788,-1.9037147760391235
0.3149995803833008,0.7084043502807624,-1.909122347831726
0.3199996948242205,0.6708734512329109,-1.9253556728363037
0.3249998092651367,0.5928915023803736,-1.9253556728363037
0.32999992370605646,0.5251977920532251,-1.9361708164215088
0.33500003814697266,0.43846588134765696,-1.9469913244247437
0.3400001525878906,0.36703948974609446,-1.9686216115951536
0.3450002670288086,0.28727989196777237,-1.9848549365997312
0.35000038146972834,0.2032611846923853,-1.990262508392334
0.3549995422363281,0.17106513977050852,-2.006490707397461
0.3599996566772461,0.0787618637084968,-2.017305850982666
0.36499977111816406,-0.009752464294432883,-2.033533811569214
0.36999988555908203,-0.07720870971679616,-2.0497567653656006
0.375,-0.12227554321288991,-2.0659899711608887
0.38000011444091797,-0.21752376556396413,-2.071397542953491
0.38500022888183594,-0.29766674041747976,-2.0876152515411377
0.3900003433227539,-0.38160343170165945,-2.0930333137512207
0.3950004577636719,-0.4353048324584954,-2.114668846130371
0.39999961853027166,-0.5105325698852532,-2.1254842281341553
0.4049997329711914,-0.568792533874511,-2.1308865547180176
0.4099998474121094,-0.6329872131347649,-2.152527332305908
0.41499996185302734,-0.7012683868408196,-2.1633477210998535
0.42000007629394354,-0.7851144790649389,-2.17957067489624
0.4250001907348633,-0.8440467834472649,-2.195793390274048
0.4300003051757795,-0.8947488784790032,-2.1958038806915283
0.4350004196166992,-0.973585319519044,-2.217444658279419
0.4399995803833008,-1.0388252258300774,-2.22284197807312
0.4449996948242205,-1.074215126037597,-2.2444827556610107
0.4499998092651367,-1.148086738586425,-2.2498903274536133
0.45499992370605646,-1.2137319564819329,-2.2607109546661377
0.46000003814697266,-1.2449953079223626,-2.2607107162475586
0.4650001525878906,-1.281185340881347,-2.276944160461426
0.4700002670288086,-1.3260290145874016,-2.2877488136291504
0.47500038146972834,-1.4196798324584954,-2.28775405883789
0.4799995422363281,-1.49941177368164,-2.30938458442688
0.4849996566772461,-1.522469711303712,-2.3202154636383057
0.48999977111816406,-1.576593589782716,-2.336427688598633
0.49499988555908203,-1.5927049636840813,-2.336433172225952
0.5,-1.6489917755126946,-2.336432933807373
0.505000114440918,-1.6640817642211907,-2.3526611328125
0.5100002288818359,-1.700292778015136,-2.363476276397705
0.5150003433227539,-1.7146579742431634,-2.368889093399048
0.5200004577636719,-1.708797645568847,-2.3742966651916504
0.5249996185302717,-1.7740146636962866,-2.374317169189453
0.5299997329711914,-1.7960092544555657,-2.374286413192749
0.5349998474121094,-1.8163845062255852,-2.374312162399292
0.5399999618530273,-1.8295566558837866,-2.3742916584014893
0.5450000762939435,-1.8281070709228509,-2.3797144889831543
0.5500001907348633,-1.8618041992187493,-2.3851120471954346
0.5550003051757795,-1.8719837188720696,-2.39054012298584
0.5600004196166992,-1.863646697998048,-2.3851120471954346
0.5649995803833008,-1.884243202209472,-2.3905398845672607
0.5699996948242205,-1.8924495697021477,-2.3959274291992188
0.5749998092651367,-1.8842212677001946,-2.39593243598938
0.5799999237060565,-1.8733970642089837,-2.3905246257781982
0.5850000381469727,-1.8933479309082024,-2.39054012298584
0.5900001525878906,-1.8605033874511712,-2.390519618988037
0.5950002670288086,-1.8632204055786108,-2.3905298709869385
0.6000003814697283,-1.8504535675048839,-2.390519618988037
0.6049995422363281,-1.824462127685548,-2.3797197341918945
0.6099996566772461,-1.8067085266113274,-2.379699230194092
0.6149997711181641,-1.788827133178712,-2.374312162399292
0.619999885559082,-1.7346059799194329,-2.3851070404052734
0.625,-1.7272741317749016,-2.374311923980713
0.630000114440918,-1.6868221282958977,-2.3742916584014893
0.6350002288818359,-1.6803838729858391,-2.374311923980713
0.6400003433227539,-1.610309791564939,-2.3742916584014893
0.6450004577636719,-1.5849639892578118,-2.3742966651916504
0.6499996185302717,-1.5600330352783196,-2.3634815216064453
0.6549997329711914,-1.4806005477905266,-2.3634865283966064
0.6599998474121094,-1.3866531372070305,-2.3526611328125
0.6649999618530273,-1.309266281127929,-2.3472583293914795
0.6700000762939435,-1.2852251052856438,-2.336433172225952
0.6750001907348633,-1.21344394683838,-2.3310253620147705
0.6800003051757795,-1.1578580856323235,-2.314802646636963
0.6850004196166992,-1.060841751098632,-2.3039820194244385
0.6899995803833008,-1.04543228149414,-2.3039822578430176
0.6949996948242205,-0.9412328720092749,-2.28775405883789
0.6999998092651367,-0.9171936035156225,-2.2769386768341064
0.7049999237060565,-0.8052522659301751,-2.26611852645874
0.7100000381469727,-0.7574312210083001,-2.2498955726623535
0.7150001525878906,-0.6875421524047827,-2.2444827556610107
0.7200002670288086,-0.6360752105712866,-2.228260040283203
0.7250003814697283,-0.544190597534179,-2.2120368480682373
0.7299995422363281,-0.48760814666747976,-2.2174346446990967
0.7349996566772461,-0.39615840911865163,-2.1958088874816895
0.7399997711181641,-0.3451559066772454,-2.184983491897583
0.744999885559082,-0.3117134094238274,-2.168755531311035
0.75,-0.19698925018310298,-2.1633477210998535
0.755000114440918,-0.10603446960449148,-2.136319637298584
0.7600002288818359,-0.06131954193115163,-2.130891799926758
0.7650003433227539,0.03300075531006108,-2.114668846130371
0.7700004577636719,0.10714893341064524,-2.0984458923339844
0.7749996185302717,0.1915710449218775,-2.0984508991241455
0.7799997329711914,0.24229507446289134,-2.0822179317474365
0.7849998474121094,0.3094118118286122,-2.076815366744995
0.7899999618530273,0.3759696960449226,-2.0659899711608887
0.7950000762939435,0.42903690338134837,-2.049777030944824
0.8000001907348633,0.48954944610595597,-2.033534049987793
0.8050003051757795,0.5454061508178736,-2.0173161029815674
0.8100004196166992,0.6309831619262702,-2.006490707397461
0.8149995803833008,0.6907794952392585,-1.995680332183838
0.8199996948242205,0.7589385986328132,-1.9794472455978391
0.8249998092651367,0.8375509262084968,-1.9578166007995603
0.8299999237060565,0.9019172668457038,-1.9469913244247437
0.8350000381469727,0.9585569381713874,-1.9415836334228516
0.8400001525878906,1.0163143157958991,-1.9253605604171753
0.8450002670288086,1.0631502151489265,-1.9145452976226809
0.8500003814697283,1.1188409805297859,-1.898312211036682
0.8549995422363281,1.1701972961425788,-1.8983123302459717
0.8599996566772461,1.2223909378051765,-1.8820892572402952
0.8649997711181641,1.2702301025390632,-1.882084369659424
0.869999885559082,1.3164127349853523,-1.8604536056518557
0.875,1.3789499282836921,-1.8496333360671997
0.880000114440918,1.4198139190673835,-1.8388179540634155
0.8850002288818359,1.4675977706909187,-1.82799768447876
0.8900003433227539,1.5140598297119148,-1.8225899934768677
0.8950004577636719,1.53824691772461,-1.8225950002670288
0.8999996185302717,1.569320487976075,-1.8171772956848145
0.9049997329711914,1.6176565170288093,-1.7955516576766968
0.9099998474121094,1.629423904418946,-1.795541763305664
0.9149999618530273,1.670450973510743,-1.784731388092041
0.9200000762939435,1.6811502456665046,-1.7901290655136108
0.9250001907348633,1.7097309112548835,-1.7847312688827517
0.9300003051757795,1.7355201721191413,-1.768498420715332
0.9350004196166992,1.7478387832641609,-1.768498420715332
0.9399995803833008,1.7750976562500007,-1.7630908489227295
0.9449996948242205,1.8002365112304695,-1.763095736503601
0.9499998092651367,1.7842720031738288,-1.7522705793380735
0.9549999237060565,1.8047206878662116,-1.757673263549805
0.9600000381469727,1.7872684478759773,-1.7468676567077637
0.9650001525878906,1.800815391540528,-1.746862769126892
0.9700002670288086,1.7951181411743171,-1.746862769126892
0.9750003814697283,1.817294883728028,-1.741455078125
0.9799995422363281,1.8058956146240241,-1.736047387123108
0.9849996566772461,1.7941501617431648,-1.741455078125
0.9899997711181641,1.773349571228028,-1.7414551973342896
0.994999885559082,1.7629487991333015,-1.746862769126892
1.0,1.77524642944336,-1.7522704601287842
1.005000114440918,1.7264402389526374,-1.746862769126892
1.010000228881836,1.7290828704833991,-1.7522704601287842
1.015000343322754,1.6790845870971687,-1.7576879262924194
1.0200004577636719,1.6609428405761726,-1.7684935331344604
1.0249996185302717,1.630761909484864,-1.7576879262924194
1.0299997329711914,1.5946834564208991,-1.76849365234375
1.0349998474121094,1.5432346343994148,-1.773906111717224
1.0399999618530273,1.5250728607177741,-1.768498420715332
1.0450000762939435,1.5202348709106452,-1.78472638130188
1.0500001907348633,1.4478338241577156,-1.8009494543075562
1.0550003051757795,1.3893564224243171,-1.80636203289032
1.0600004196166992,1.3365848541259773,-1.811769723892212
1.0649995803833008,1.2775485992431648,-1.811769723892212
1.0699996948242205,1.2182977676391609,-1.8117698431015017
1.0749998092651367,1.1664436340332038,-1.833405375480652
1.0799999237060565,1.1183403015136726,-1.8334052562713623
1.0850000381469727,1.055317687988282,-1.838813066482544
1.0900001525878906,1.0126703262329109,-1.85503613948822
1.0950002670288086,0.9392459869384773,-1.860448718070984
1.1000003814697283,0.8841312408447273,-1.87667179107666
1.1049995422363281,0.8042686462402351,-1.89290452003479
1.109999656677246,0.7481124877929695,-1.8983123302459717
1.114999771118164,0.655948448181153,-1.9091373682022097
1.119999885559082,0.5779493331909187,-1.941573977470398
1.125,0.5311897277832038,-1.936180830001831
1.130000114440918,0.4664171218872095,-1.9469865560531616
1.135000228881836,0.3772094726562507,-1.9686269760131836
1.140000343322754,0.2956617355346687,-1.9740347862243652
1.1450004577636719,0.25186519622802805,-1.9956800937652588
1.1499996185302717,0.1908662796020515,-1.9902626276016235
1.1549997329711914,0.09746150970459055,-2.006490707397461
1.1599998474121094,0.01052551269531321,-2.02812123298645
1.1649999618530273,-0.034392547607421164,-2.0281262397766113
1.1700000762939435,-0.09977931976318288,-2.0389418601989746
1.1750001907348633,-0.18567008972167898,-2.0551695823669434
1.1800003051757795,-0.2521907806396477,-2.0768003463745117
1.1850004196166992,-0.33352489471435476,-2.0930333137512207
1.1899995803833008,-0.3929168701171868,-2.1092562675476074
1.1949996948242205,-0.48547000885009695,-2.1200766563415527
1.1999998092651367,-0.5306102752685558,-2.1362998485565186
1.2049999237060565,-0.5744897842407237,-2.1525325775146484
1.2100000381469727,-0.6416389465332024,-2.1525323390960693
1.2150001525878906,-0.732023429870603,-2.1633477210998535
1.2200002670288086,-0.7950899124145501,-2.1795711517333984
1.2250003814697283,-0.8521778106689428,-2.1795759201049805
1.2299995422363281,-0.9209110260009759,-2.201206684112549
1.234999656677246,-0.9656803131103509,-2.2174394130706787
1.239999771118164,-1.0392734527587866,-2.2228472232818604
1.244999885559082,-1.068802070617675,-2.239065408706665
1.25,-1.1681644439697276,-2.2498905658721924
1.255000114440918,-1.19008560180664,-2.2607107162475586
1.260000228881836,-1.2701141357421868,-2.26611852645874
1.265000343322754,-1.317750167846679,-2.28775405883789
1.2700004577636719,-1.3476516723632788,-2.28775405883789
1.2749996185302717,-1.417748641967771,-2.3039867877960205
1.2799997329711914,-1.514668655395507,-2.309385061264038
1.2849998474121094,-1.5644247055053722,-2.30938982963562
1.2899999618530273,-1.5987188339233391,-2.3202052116394043
1.2950000762939435,-1.6355754852294915,-2.3310253620147705
1.3000001907348633,-1.664753150939939,-2.3472485542297363
1.3050003051757795,-1.691490364074708,-2.3472535610198975
1.3100004196166992,-1.7376539230346673,-2.3580689430236816
1.3149995803833008,-1.743984413146972,-2.3742966651916504
1.3199996948242205,-1.8160659790039055,-2.3742969036102295
1.3249998092651367,-1.7852909088134759,-2.3743062019348145
1.3299999237060565,-1.8219472885131829,-2.379704713821411
1.3350000381469727,-1.8481094360351555,-2.3743014335632324
1.3400001525878906,-1.844889831542968,-2.3742921352386475
1.3450002670288086,-1.8617488861083977,-2.379714012145996
1.3500003814697283,-1.8610040664672827,-2.3851120471954346
1.3549995422363281,-1.8828317642211907,-2.385121583938598
1.359999656677246,-1.9004327774047827,-2.3851120471954346
1.364999771118164,-1.8844673156738274,-2.3905389308929443
1.369999885559082,-1.8778621673583977,-2.395927667617798
1.375,-1.8931753158569329,-2.3905293941497803
1.380000114440918,-1.8723737716674798,-2.390519857406616
1.385000228881836,-1.8432180404663079,-2.395946502685547
1.390000343322754,-1.8569643020629876,-2.379704475402832
1.3950004577636719,-1.8448907852172827,-2.385121583938598
1.3999996185302717,-1.8258363723754876,-2.3851122856140137
1.4049997329711914,-1.8136322021484368,-2.3851218223571777
1.4099998474121094,-1.7788536071777337,-2.3851122856140137
1.4149999618530273,-1.7893859863281225,-2.3743109703063965
1.4200000762939435,-1.7158500671386712,-2.3742921352386475
1.4250001907348633,-1.680663299560548,-2.3743109703063965
1.4300003051757795,-1.6627809524536108,-2.3742921352386475
1.4350004196166992,-1.6476900100708,-2.3742966651916504
1.4399995803833008,-1.6149980545043956,-2.368889093399048
1.4449996948242205,-1.5830642700195305,-2.368893623352051
1.4499998092651367,-1.508006286621093,-2.3688840866088867
1.4549999237060565,-1.406453323364257,-2.3580782413482666
1.4600000381469727,-1.324952316284179,-2.3472533226013184
1.4650001525878906,-1.3263475418090813,-2.3310253620147705
1.4700002670288086,-1.2215520858764641,-2.325617790222168
1.4750003814697283,-1.1748649597167962,-2.3202147483825684
1.4799995422363281,-1.1009943008422827,-2.3039820194244385
1.484999656677246,-1.0628129959106438,-2.3039867877960205
1.489999771118164,-1.0034553527832024,-2.28775405883789
1.494999885559082,-0.8993293762207024,-2.282346487045288
1.5,-0.841871452331544,-2.271531105041504
1.505000114440918,-0.7948295593261712,-2.26611852645874
1.510000228881836,-0.692510795593261,-2.2498950958251953
1.515000343322754,-0.6489870071411108,-2.2336721420288086
1.5200004577636719,-0.5956232070922827,-2.2174394130706787
1.5249996185302717,-0.5218421936035149,-2.2066285610198975
1.5299997329711914,-0.47536487579345454,-2.2066192626953125
1.5349998474121094,-0.392609786987304,-2.1958084106445312
1.5399999618530273,-0.3147308349609368,-2.174168109893799
1.5450000762939435,-0.25838871002197195,-2.168765068054199
1.5500001907348633,-0.16179962158203054,-2.1525323390960693
1.5550003051757795,-0.10843200683593679,-2.141721725463867
1.5600004196166992,0.0030792236328132105,-2.1254889965057373
1.5649995803833008,0.050342369079590554,-2.114668846130371
1.5699996948242205,0.11969261169433665,-2.0984456539154053
1.5749998092651367,0.21561317443847727,-2.087625503540039
1.5799999237060565,0.26164703369140696,-2.0659945011138916
1.5850000381469727,0.30137329101562393,-2.0551788806915283
1.5900001525878906,0.4021881103515632,-2.044354200363159
1.5950002670288086,0.4320161819458015,-2.0281262397766113
1.6000003814697283,0.5124910354614265,-2.0281262397766113
1.6049995422363281,0.5613735198974599,-2.006495237350464
1.609999656677246,0.6692407608032251,-2.0010783672332764
1.614999771118164,0.7253711700439442,-1.9848549365997312
1.619999885559082,0.7863481521606452,-1.9794472455978391
1.625,0.8672311782836921,-1.957816243171692
1.630000114440918,0.9263322830200202,-1.9469913244247437
1.635000228881836,0.9709308624267585,-1.9307727813720703
1.640000343322754,1.0464408874511726,-1.9253556728363037
1.6450004577636719,1.0673187255859382,-1.9145448207855225
1.6499996185302717,1.140166091918946,-1.903720021247864
1.6549997329711914,1.1945360183715827,-1.892909288406372
1.6599998474121094,1.2511203765869148,-1.8820844888687136
1.6649999618530273,1.3175123214721687,-1.876681327819824
1.6700000762939435,1.3522518157958991,-1.855041027069092
1.6750001907348633,1.378397750854493,-1.8496378660202024
1.6800003051757795,1.4242971420288093,-1.838813066482544
1.6850004196166992,1.4671686172485359,-1.828002333641052
1.6899995803833008,1.530175971984864,-1.8225852251052856
1.6949996948242205,1.544235038757325,-1.811769723892212
1.6999998092651367,1.582065391540528,-1.811769723892212
1.7049999237060565,1.6271331787109382,-1.8063665628433228
1.7100000381469727,1.6340377807617195,-1.790134072303772
1.7150001525878906,1.6614807128906257,-1.790134072303772
1.7200002670288086,1.6865842819213874,-1.78472638130188
1.7250003814697283,1.700799751281739,-1.7793232202529907
1.7299995422363281,1.7350748062133796,-1.768498420715332
1.734999656677246,1.7692373275756843,-1.7685075998306274
