Time (s),Ay (m/s²),Fᵧ (N)
0.0,-2.6103498458862298,-0.5420133471488953
0.0049991607666015625,-2.465880584716796,-0.5163647532463074
0.010000228881835938,-2.324750137329101,-0.4949951767921448
0.014999389648441053,-2.2007381439208977,-0.4821708500385284
0.020000457763671875,-2.095183563232421,-0.4650760591030121
0.024999618530273438,-1.9918033599853509,-0.4437043368816376
0.030000686645507812,-1.8203880310058587,-0.4223347902297973
0.034999847412109375,-1.6528141021728509,-0.4009609520435333
0.04000091552734375,-1.528279495239257,-0.3795913457870483
0.04500007629394531,-1.3672573089599585,-0.3496700823307037
0.049999237060546875,-1.214713287353515,-0.3240257799625397
0.05500030517578125,-1.0644008636474585,-0.3069267272949219
0.05999946594238281,-0.8943159103393548,-0.281282365322113
0.06500053405761719,-0.721009445190429,-0.2556358873844147
0.06999969482421875,-0.5663806915283196,-0.229991540312767
0.07500076293945312,-0.4065467834472649,-0.2043429464101791
0.07999992370605469,-0.2470781326293956,-0.1787028461694717
0.08499908447265625,-0.09148807525634695,-0.1573269069194793
0.09000015258789062,0.05971984863281321,-0.135961577296257
0.09499931335449219,0.21918087005615305,-0.1145877391099929
0.10000038146972656,0.35922794342041087,-0.0974929258227348
0.10499954223632812,0.5083024978637702,-0.0632969215512275
0.11000061035155895,0.6744440078735359,-0.0462021082639694
0.11499977111816406,0.7961233139038093,-0.0205513909459114
0.12000083923339844,1.0143220901489265,0.009363473393023
0.125,1.1520288467407234,0.0350141897797584
0.12999916076660156,1.2668998718261726,0.0606542900204658
0.13500022888183594,1.4225948333740241,0.090575523674488
0.13999938964844105,1.5496538162231452,0.1119451075792312
0.14500045776367188,1.713098335266114,0.1375894546508789
0.14999961853027344,1.836130905151368,0.1546885222196579
0.1550006866455078,1.9720318794250495,0.1803349703550338
0.15999984741210938,2.1147525787353523,0.2059793323278427
0.16500091552734375,2.216844844818116,0.227351039648056
0.1700000762939453,2.3395641326904304,0.2444458603858947
0.17499923706054688,2.4426992416381843,0.2700944542884826
0.18000030517578125,2.5844815254211433,0.2914640307426452
0.1849994659423828,2.681965637207032,0.3085651993751526
0.1900005340576172,2.813693809509278,0.3299305438995361
0.19499969482421875,2.914544868469239,0.3470295965671539
0.20000076293945312,2.993737506866456,0.3641244173049927
0.2049999237060547,3.1060603141784675,0.3897730112075805
0.20999908447265625,3.180141735076905,0.4025930762290954
0.21500015258789062,3.2554033279418952,0.4196921288967132
0.2199993133544922,3.312423515319825,0.4410616755485534
0.22500038146972656,3.3951299667358406,0.4538859724998474
0.22999954223632812,3.4948447227478034,0.4667060673236847
0.23500061035155895,3.5343444824218757,0.4838030338287353
0.23999977111816406,3.5842760086059577,0.492352545261383
0.24500083923339844,3.6368458747863777,0.4966251850128174
0.25,3.693137931823731,0.5051746964454651
0.25499916076660156,3.764304924011231,0.5222737789154053
0.26000022888183594,3.764330196380616,0.5265442728996277
0.26499938964844105,3.8009331703186042,0.5350938439369202
0.2700004577636719,3.8506944656372077,0.5393685698509216
0.27499961853027344,3.872864532470704,0.5521907210350037
0.2800006866455078,3.921982097625733,0.5564655065536499
0.2849998474121094,3.922920989990235,0.5564655661582947
0.29000091552734375,3.9077165603637702,0.5607402920722961
0.2950000762939453,3.922190952301026,0.5650129318237305
0.2999992370605469,3.9126804351806648,0.5607381463050842
0.30500030517578125,3.881770896911622,0.5650129318237305
0.3099994659423828,3.8470862388610847,0.5607381463050842
0.3150005340576172,3.851997661590577,0.5564655065536499
0.31999969482421875,3.776163864135743,0.5521907806396484
0.3250007629394531,3.728089618682862,0.556467592716217
0.3299999237060547,3.680996227264405,0.5564634203910828
0.33499908447265625,3.6564467430114753,0.5393685698509216
0.3400001525878906,3.606143283843995,0.5350937843322754
0.3449993133544922,3.5399830818176277,0.5350938439369202
0.35000038146972656,3.507721710205079,0.5350938439369202
0.3549995422363281,3.434888648986817,0.5179968476295471
0.36000061035155895,3.3552811622619636,0.5094473958015442
0.36499977111816406,3.256703186035157,0.5008978247642517
0.37000083923339844,3.202685165405274,0.4838030040264129
0.375,3.06711130142212,0.4709808230400085
0.37999916076660156,2.970023918151856,0.4538818001747131
0.38500022888183594,2.894241619110108,0.4410574734210968
0.38999938964844105,2.7802613258361824,0.4325121641159057
0.3950004577636719,2.6551225662231452,0.4068636298179626
0.39999961853027344,2.5240190505981444,0.3940435349941253
0.4050006866455078,2.396877098083497,0.3683950006961822
0.4099998474121094,2.2807496070861824,0.3513001203536987
0.41500091552734375,2.158342647552491,0.3384758830070495
0.4200000762939453,2.0509317398071296,0.3171062767505646
0.4249992370605469,1.8904822349548347,0.3000072538852691
0.43000030517578125,1.7502859115600593,0.2700881361961365
0.4349994659423828,1.5989912033081062,0.2487164288759231
0.4400005340576172,1.466180610656739,0.231621578335762
0.44499969482421875,1.326877403259278,0.205975130200386
0.4500007629394531,1.2033260345458991,0.1760559827089309
0.4549999237060547,1.0503213882446296,0.1589590460062027
0.45999908447265625,0.8698089599609382,0.133314698934555
0.4650001525878906,0.7140615463256843,0.1076640784740448
0.4699993133544922,0.5089414596557624,0.0777491256594657
0.47500038146972656,0.3581045150756843,0.06065009906888
0.4799995422363281,0.18700008392334055,0.0392804890871048
0.48500061035155895,0.019021797180176492,0.0093571953475475
0.48999977111816406,-0.13085479736327876,-0.0205577556043863
0.49500083923339844,-0.24172801971435476,-0.0376588627696037
0.5,-0.4377996444702159,-0.0675738155841827
0.5049991607666016,-0.5713121414184545,-0.088947594165802
0.5100002288818359,-0.7554533004760735,-0.1103172004222869
0.514999389648441,-0.9291259765624993,-0.1359657347202301
0.5200004577636719,-1.1019002914428722,-0.157331183552742
0.5249996185302734,-1.2394487380981438,-0.1744343638420105
0.5300006866455078,-1.3566410064697276,-0.2043493241071701
0.5349998474121094,-1.500498962402343,-0.2299978584051132
0.5400009155273438,-1.6545440673828118,-0.2556422352790832
0.5450000762939453,-1.781133842468261,-0.2812907695770263
0.5499992370605469,-1.9286710739135735,-0.3069309592247009
0.5550003051757812,-2.0569698333740227,-0.3240299820899963
0.5599994659423828,-2.167801094055175,-0.3496743142604828
0.5650005340576172,-2.2597066879272454,-0.3710460066795349
0.5699996948242188,-2.3758117675781225,-0.3881408870220184
0.5750007629394531,-2.5573045730590813,-0.4095167815685272
0.5799999237060547,-2.6465284347534173,-0.4394317269325256
0.5849990844726562,-2.7470676422119134,-0.4608055055141449
0.5900001525878906,-2.8388769149780266,-0.4736256301403045
0.5949993133544922,-3.023739051818847,-0.4907246232032776
0.6000003814697266,-3.1287157058715813,-0.512094259262085
0.6049995422363281,-3.191304397583007,-0.5334680676460266
0.610000610351559,-3.2645122528076147,-0.5462881326675415
0.6149997711181641,-3.308080863952636,-0.5633871555328369
0.6200008392333984,-3.412966918945312,-0.5762072205543518
0.625,-3.4627515792846673,-0.5890336036682129
0.6299991607666016,-3.550369453430175,-0.6018537282943726
0.6350002288818359,-3.606140327453611,-0.6146779656410217
0.639999389648441,-3.6407825469970696,-0.6274980306625366
0.6450004577636719,-3.6897327423095696,-0.6360496282577515
0.6499996185302734,-3.7474224090576147,-0.6574192643165588
0.6550006866455078,-3.7782804489135735,-0.6659666895866394
0.6599998474121094,-3.774461936950683,-0.6702414751052856
0.6650009155273438,-3.850296211242675,-0.67451411485672
0.6700000762939453,-3.858409118652343,-0.6830636262893677
0.6749992370605469,-3.869517517089843,-0.6916110515594482
0.6800003051757812,-3.889788818359376,-0.700160562992096
0.6849994659423828,-3.914753150939939,-0.691611111164093
0.6900005340576172,-3.9020931243896477,-0.6916110515594482
0.6949996948242188,-3.8543302536010735,-0.700160562992096
0.7000007629394531,-3.8795492172241186,-0.6916110515594482
0.7049999237060547,-3.879244041442872,-0.700160562992096
0.7099990844726562,-3.8612033843994134,-0.700160562992096
0.7150001525878906,-3.8448230743408196,-0.6958858370780945
0.7199993133544922,-3.795349311828611,-0.6916110515594482
0.7250003814697266,-3.760457229614257,-0.6873342394828796
0.7299995422363281,-3.7132589340209954,-0.6787889003753662
0.735000610351559,-3.628841590881347,-0.6787867546081543
0.7399997711181641,-3.5776197433471673,-0.6616919636726379
0.7450008392333984,-3.526959609985351,-0.6616919040679932
0.75,-3.4830762863159173,-0.6531424522399902
0.7549991607666016,-3.367647361755372,-0.6317728161811829
0.7600002288818359,-3.3166734695434545,-0.6189485788345337
0.764999389648441,-3.2257501602172827,-0.6146717071533203
0.7700004577636719,-3.154879760742187,-0.597576916217804
0.7749996185302734,-3.0720169067382788,-0.597576916217804
0.7800006866455078,-2.884849739074708,-0.5762072801589966
0.7849998474121094,-2.7812988281249993,-0.5676556825637817
0.7900009155273438,-2.677913856506347,-0.5462861061096191
0.7950000762939453,-2.557007980346679,-0.5249143838882446
0.7999992370605469,-2.414955329895019,-0.5078194737434387
0.8050003051757812,-2.2770406723022454,-0.4864457249641418
0.8099994659423828,-2.1635219573974585,-0.4693508744239807
0.8150005340576172,-2.032486152648925,-0.4479771256446838
0.8199996948242188,-1.9025756835937493,-0.4266074895858764
0.8250007629394531,-1.7469913482666009,-0.4052358269691467
0.8299999237060547,-1.593258094787597,-0.3881408870220184
0.8349990844726562,-1.4513618469238274,-0.3624903857707977
0.8400001525878906,-1.3035718917846673,-0.3368500769138336
0.8449993133544922,-1.1510278701782237,-0.3197510838508606
0.8500003814697266,-1.0434505462646477,-0.2941067218780517
0.8549995422363281,-0.8183471679687493,-0.2727309167385101
0.860000610351559,-0.6645938873291009,-0.2428159117698669
0.8649997711181641,-0.49178714752197195,-0.2171694636344909
0.8700008392333984,-0.35749263763427486,-0.1957998275756836
0.875,-0.18458194732665945,-0.1701493114233017
0.8799991607666016,-0.05183143615722763,-0.1402342617511749
0.8850002288818359,0.10830574035644425,-0.1316847950220108
0.889999389648441,0.22699813842773509,-0.1017656475305557
0.8950004577636719,0.3824413299560572,-0.0803939551115036
0.8999996185302734,0.5481060028076161,-0.0590243227779865
0.9050006866455078,0.7485168457031239,-0.0290990564972162
0.9099998474121094,0.8713987350463874,-0.0034587604459375
0.9150009155273438,1.0460117340087898,0.0179170109331607
0.9200000762939453,1.1997440338134773,0.0478320568799972
0.9249992370605469,1.3089712142944343,0.0692078322172164
0.9300003051757812,1.4407394409179695,0.0948481261730194
0.9349994659423828,1.5952260971069343,0.1119471117854118
0.9400005340576172,1.7662933349609382,0.1375914961099624
0.9449996948242188,1.8872611999511726,0.163237914443016
0.9500007629394531,2.0304396629333503,0.1846075505018234
0.9549999237060547,2.1444724082946784,0.2059833407402038
0.9599990844726562,2.256701278686524,0.2273489087820053
0.9650001525878906,2.3697021484375007,0.2487226277589798
0.9699993133544922,2.4923165321350105,0.2700922787189483
0.9750003814697266,2.5871513366699226,0.2914680242538452
0.9799995422363281,2.7326872825622566,0.3171083331108093
0.985000610351559,2.8453748703002937,0.3299325704574585
0.9899997711181641,2.9112389564514167,0.3513022065162658
0.9950008392333984,3.0353458404541023,0.3684011995792389
1.0,3.112993526458741,0.3897708058357239
1.0049991607666016,3.1736853599548347,0.4111445546150207
1.010000228881836,3.273130702972413,0.4196899533271789
1.014999389648441,3.3411114692687995,0.436788946390152
1.0200004577636719,3.416425037384034,0.449609100818634
1.0249996185302734,3.4807274818420417,0.4624353945255279
1.0300006866455078,3.534136104583741,0.47525554895401
1.0349998474121094,3.5807025909423835,0.4838030040264129
1.0400009155273438,3.620305824279786,0.4923524856567383
1.0450000762939453,3.6561272621154792,0.5094514489173889
1.0499992370605469,3.71976022720337,0.5179968476295471
1.0550003051757812,3.734087276458741,0.5308190584182739
1.0599994659423828,3.7976563453674324,0.5350938439369202
1.0650005340576172,3.877161312103272,0.5393705368041992
1.0699996948242188,3.8576825141906745,0.5521907210350037
1.0750007629394531,3.852770614624024,0.5479159951210022
1.0799999237060547,3.8604662895202644,0.5564655065536499
1.0849990844726562,3.8829601287841804,0.5607361197471619
1.0900001525878906,3.8682773590087898,0.5564654469490051
1.0949993133544922,3.8637817382812507,0.5650109052658081
1.1000003814697266,3.8071778297424324,0.5607402324676514
1.1049995422363281,3.8068655014038093,0.5564655065536499
1.110000610351559,3.7819002151489265,0.5521907210350037
1.114999771118164,3.7021959304809577,0.5479159951210022
1.1200008392333984,3.67101697921753,0.5479159951210022
1.125,3.6497219085693366,0.5393685102462769
1.1299991607666016,3.6029408454895027,0.5308190584182739
1.135000228881836,3.57322006225586,0.5308170318603516
1.139999389648441,3.514029788970948,0.5179968476295471
1.1450004577636719,3.4682291030883796,0.5094453692436218
1.1499996185302734,3.373686122894288,0.5008999109268188
1.1550006866455078,3.296923446655274,0.4923524558544159
1.1599998474121094,3.225636768341065,0.4795282483100891
1.1650009155273438,3.099627304077149,0.4624292850494385
1.1700000762939453,3.024709033966065,0.4496090710163116
1.1749992370605469,2.921230602264405,0.4496070444583893
1.1800003051757812,2.819492149353028,0.4325121641159057
1.1849994659423828,2.7229893684387214,0.4154091477394104
1.1900005340576172,2.622440147399903,0.3940435349941253
1.1949996948242188,2.5009205818176277,0.3769445717334747
1.2000007629394531,2.374217319488526,0.3598496615886688
1.2049999237060547,2.2442510604858406,0.3384759724140167
1.2099990844726562,2.123512554168702,0.3171063065528869
1.2150001525878906,1.9605195999145515,0.3042820990085602
1.2199993133544922,1.8494799613952644,0.2829124331474304
1.2250003814697266,1.680352973937989,0.2572660148143768
1.2299995422363281,1.5637262344360359,0.2358963638544082
1.235000610351559,1.4279296875000007,0.2102519571781158
1.239999771118164,1.2962205886840827,0.1931529939174652
1.2450008392333984,1.1641986846923835,0.1632318347692489
1.25,0.9710262298583991,0.146136924624443
1.2549991607666016,0.8370855331420906,0.1247652322053909
1.260000228881836,0.6617458343505866,0.0991208404302597
1.264999389648441,0.47048931121826243,0.0649249479174614
1.2700004577636719,0.3210371017456044,0.0478300228714942
1.2749996185302734,0.14306430816650462,0.0179048534482717
1.2800006866455078,-0.0018846511840813207,-0.0034607958514243
1.2849998474121094,-0.17865676879882741,-0.0248364899307489
1.2900009155273438,-0.31808395385742116,-0.0547516159713268
1.2950000762939453,-0.49697895050048757,-0.0846727490425109
1.2999992370605469,-0.6141311645507788,-0.110317163169384
1.3050003051757812,-0.8271371841430657,-0.1316888481378555
1.3099994659423828,-0.9795972824096673,-0.1487837731838226
1.3150005340576172,-1.1511528015136712,-0.165882721543312
1.3199996948242188,-1.2953330993652337,-0.1915271282196045
1.3250007629394531,-1.4331743240356438,-0.2129027843475341
1.3299999237060547,-1.5877611160278313,-0.2385432124137878
1.3349990844726562,-1.7098028182983391,-0.2641916275024414
1.3400001525878906,-1.8371726989746087,-0.2898360192775726
1.3449993133544922,-1.9625312805175774,-0.3112076818943023
1.3500003814697266,-2.1004964828491186,-0.328302651643753
1.3549995422363281,-2.196637344360351,-0.3496783077716827
1.360000610351559,-2.29714126586914,-0.3710439801216125
1.364999771118164,-2.4375288009643548,-0.3924216628074646
1.3700008392333984,-2.5317737579345696,-0.4180620610713959
1.375,-2.647813987731933,-0.4351630210876465
1.3799991607666016,-2.758287620544433,-0.4650781750679016
1.385000228881836,-2.8633739471435558,-0.4907225668430328
1.389999389648441,-2.981441688537597,-0.4992720484733581
1.3950004577636719,-3.1557447433471673,-0.5206477046012878
1.3999996185302734,-3.192453575134275,-0.54201340675354
1.4050006866455078,-3.2536556243896477,-0.5548396110534668
1.4099998474121094,-3.3162042617797827,-0.5719345211982727
1.4150009155273438,-3.3912450790405266,-0.5890294313430786
1.4200000762939453,-3.4702503204345696,-0.5975789427757263
1.4249992370605469,-3.496862602233888,-0.606132447719574
1.4300003051757812,-3.562518310546876,-0.6189486384391785
1.4349994659423828,-3.59456558227539,-0.6317748427391052
1.4400005340576172,-3.663787078857421,-0.6403203010559082
1.4449996948242188,-3.715220642089843,-0.6574171781539917
1.4500007629394531,-3.7289220809936516,-0.6616919636726379
1.4549999237060547,-3.7844936370849585,-0.6659666895866394
1.4599990844726562,-3.8193246841430657,-0.6787908673286438
1.4650001525878906,-3.83602066040039,-0.6830655932426453
1.4699993133544922,-3.8643018722534173,-0.691611111164093
1.4750003814697266,-3.850660514831544,-0.700160562992096
1.4799995422363281,-3.8418180465698235,-0.6958858370780945
1.485000610351559,-3.8685962677001946,-0.6958858370780945
1.489999771118164,-3.8609430313110344,-0.700160562992096
1.4950008392333984,-3.83809585571289,-0.700160562992096
1.5,-3.8393880844116186,-0.6958858370780945
1.5049991607666016,-3.80283660888672,-0.700160562992096
1.510000228881836,-3.7772047042846673,-0.6958858966827393
1.514999389648441,-3.745460700988769,-0.6916110515594482
1.5200004577636719,-3.722665023803712,-0.6916110515594482
1.5249996185302734,-3.70219440460205,-0.6830616593360901
1.5300006866455078,-3.611949157714843,-0.6659666895866394
1.5349998474121094,-3.546815109252929,-0.6616919636726379
1.5400009155273438,-3.48049087524414,-0.653142511844635
1.5450000762939453,-3.420017433166503,-0.6445930600166321
1.5499992370605469,-3.3445388793945305,-0.6317728161811829
1.5550003051757812,-3.26125831604004,-0.6274980902671814
1.5599994659423828,-3.200628471374511,-0.6146738529205322
1.5650005340576172,-3.101904106140136,-0.5975789427757263
1.5699996948242188,-2.9655858993530266,-0.5890294909477234
1.5750007629394531,-2.8498603820800774,-0.5719305872917175
1.5799999237060547,-2.720972251892089,-0.5591103434562683
1.5849990844726562,-2.590138626098632,-0.5334619879722595
1.5900001525878906,-2.465459060668943,-0.5163669586181641
1.5949993133544922,-2.3510696411132788,-0.4992680847644806
1.6000003814697266,-2.2354242324829094,-0.4864478409290313
1.6049995422363281,-2.1027338027954094,-0.4607974886894226
1.610000610351559,-1.9596998214721673,-0.4394317269325256
1.614999771118164,-1.857197952270507,-0.4223328530788421
1.6200008392333984,-1.7082664489746087,-0.3966884315013885
1.625,-1.550878715515136,-0.3753147423267364
1.6299991607666016,-1.3626071929931634,-0.3539450466632843
1.635000228881836,-1.2057134628295891,-0.336848109960556
1.639999389648441,-1.09369297027588,-0.3112036883831024
1.6450004577636719,-0.9183542251586907,-0.289832055568695
1.6499996185302734,-0.7343379974365227,-0.2641876339912414
1.6550006866455078,-0.5721160888671868,-0.2342665046453476
1.6599998474121094,-0.4365283966064428,-0.2128968089818954
1.6650009155273438,-0.2826482772827159,-0.1872464716434478
1.6700000762939453,-0.12311859130859304,-0.1658807247877121
1.6749992370605469,0.03847675323486399,-0.1445070803165435
1.6800003051757812,0.13560562133789134,-0.1274121254682541
1.6849994659423828,0.29600315093994034,-0.1060384884476661
1.6900005340576172,0.46204071044922124,-0.0889435186982154
1.6949996948242188,0.611270713806153,-0.0675659403204917
1.7000007629394531,0.7746789932250984,-0.0291052125394344
1.7049999237060547,0.9254100799560554,-0.0077315750531852
1.7099990844726562,1.0693796157836921,0.0179128497838974
1.7150001525878906,1.230758476257325,0.0478339716792106
1.7199993133544922,1.3723505020141609,0.0692036673426628
1.7250003814697266,1.498057174682618,0.094850055873394
1.7299995422363281,1.6026447296142585,0.1162197515368461
1.735000610351559,1.8001292228698738,0.1375953555107116
1.739999771118164,1.9107764244079597,0.1675105690956115
